nm, %R
1000.000000, 80.048200
998.000000, 80.193300
996.000000, 80.075400
994.000000, 80.203800
992.000000, 80.324000
990.000000, 80.524300
988.000000, 80.123300
986.000000, 80.159000
984.000000, 80.614900
982.000000, 80.349700
980.000000, 80.812600
978.000000, 81.182900
976.000000, 80.953100
974.000000, 81.219400
972.000000, 80.988100
970.000000, 81.232900
968.000000, 81.175000
966.000000, 81.586600
964.000000, 81.413700
962.000000, 81.784500
960.000000, 81.683300
958.000000, 81.747200
956.000000, 81.757000
954.000000, 81.549200
952.000000, 81.939100
950.000000, 81.938900
948.000000, 82.192700
946.000000, 82.400000
944.000000, 82.575500
942.000000, 82.633500
940.000000, 82.906000
938.000000, 82.785600
936.000000, 83.219500
934.000000, 83.323500
932.000000, 83.830000
930.000000, 83.349300
928.000000, 83.428500
926.000000, 83.467800
924.000000, 84.248100
922.000000, 83.878700
920.000000, 84.247000
918.000000, 83.869000
916.000000, 84.690400
914.000000, 85.407800
912.000000, 85.487700
910.000000, 85.053000
908.000000, 85.341000
906.000000, 85.398500
904.000000, 85.834800
902.000000, 86.282600
900.000000, 86.419800
898.000000, 86.942800
896.000000, 87.232800
894.000000, 86.117300
892.000000, 88.054800
890.000000, 88.067900
888.000000, 88.047800
886.000000, 88.011400
884.000000, 88.402300
882.000000, 88.947200
880.000000, 88.453800
878.000000, 88.150800
876.000000, 88.519300
874.000000, 88.006300
872.000000, 88.224900
870.000000, 89.797700
868.000000, 90.521500
866.000000, 89.538100
864.000000, 89.907500
862.000000, 90.740400
860.000000, 91.466000
858.000000, 90.597300
856.000000, 88.932700
854.000000, 89.402400
852.000000, 89.720600
850.000000, 89.594200
848.000000, 89.874700
846.000000, 93.526800
844.000000, 90.565600
842.000000, 93.524800
840.000000, 92.121100
838.000000, 93.301700
836.000000, 94.471600
834.000000, 92.958300
832.000000, 94.994400
830.000000, 93.292800
828.000000, 92.067400
826.000000, 93.849000
824.000000, 93.702500
822.000000, 93.215000
820.000000, 93.156100
818.000000, 92.616300
816.000000, 92.982400
814.000000, 92.075400
812.000000, 91.041300
810.000000, 91.586400
808.000000, 91.152300
806.000000, 90.745600
804.000000, 91.117000
802.000000, 91.072400
800.000000, 91.437600
798.000000, 91.513200
796.000000, 90.379000
794.000000, 90.328100
792.000000, 90.603700
790.000000, 90.764900
788.000000, 90.790900
786.000000, 90.391500
784.000000, 90.924000
782.000000, 90.240900
780.000000, 90.149500
778.000000, 90.250400
776.000000, 89.478900
774.000000, 89.965000
772.000000, 90.160200
770.000000, 89.615800
768.000000, 89.399000
766.000000, 89.061400
764.000000, 88.439900
762.000000, 88.470200
760.000000, 88.412900
758.000000, 88.481800
756.000000, 88.480500
754.000000, 88.453400
752.000000, 88.477200
750.000000, 88.252500
748.000000, 88.455300
746.000000, 88.482400
744.000000, 87.817100
742.000000, 87.894900
740.000000, 88.469500
738.000000, 87.905000
736.000000, 87.550800
734.000000, 87.743700
732.000000, 87.627400
730.000000, 87.848300
728.000000, 87.432000
726.000000, 87.098800
724.000000, 87.095300
722.000000, 87.035900
720.000000, 86.822500
718.000000, 86.890800
716.000000, 87.251200
714.000000, 86.913800
712.000000, 86.448400
710.000000, 86.648700
708.000000, 86.773100
706.000000, 86.634500
704.000000, 86.724400
702.000000, 86.427200
700.000000, 86.315100
698.000000, 86.283000
696.000000, 86.418800
694.000000, 86.312400
692.000000, 86.270700
690.000000, 86.278700
688.000000, 86.103300
686.000000, 86.181100
684.000000, 86.478100
682.000000, 86.465100
680.000000, 86.201700
678.000000, 86.230900
676.000000, 86.379000
674.000000, 86.288800
672.000000, 86.225200
670.000000, 86.157500
668.000000, 86.050800
666.000000, 85.817900
664.000000, 85.857700
662.000000, 86.017700
660.000000, 85.790200
658.000000, 85.685600
656.000000, 85.627800
654.000000, 85.891400
652.000000, 85.888600
650.000000, 85.664200
648.000000, 85.412900
646.000000, 85.557900
644.000000, 85.618300
642.000000, 85.550500
640.000000, 85.683900
638.000000, 85.708100
636.000000, 85.651700
634.000000, 85.452600
632.000000, 85.419500
630.000000, 85.275400
628.000000, 85.161200
626.000000, 85.580900
624.000000, 85.423200
622.000000, 85.524600
620.000000, 85.540100
618.000000, 85.314600
616.000000, 85.211300
614.000000, 85.309700
612.000000, 85.336400
610.000000, 85.174800
608.000000, 85.339800
606.000000, 85.246300
604.000000, 85.198200
602.000000, 85.331500
600.000000, 85.262400
598.000000, 85.245500
596.000000, 85.123800
594.000000, 84.999400
592.000000, 85.313400
590.000000, 85.251000
588.000000, 84.923500
586.000000, 85.001100
584.000000, 85.380400
582.000000, 85.308900
580.000000, 85.178500
578.000000, 85.325600
576.000000, 85.121900
574.000000, 85.215300
572.000000, 85.147800
570.000000, 85.026300
568.000000, 85.032500
566.000000, 85.162500
564.000000, 85.463000
562.000000, 85.527100
560.000000, 85.213900
558.000000, 85.075100
556.000000, 85.090600
554.000000, 85.570700
552.000000, 85.542200
550.000000, 85.261300
548.000000, 85.250800
546.000000, 85.246600
544.000000, 85.176300
542.000000, 85.302800
540.000000, 85.299100
538.000000, 85.250800
536.000000, 85.225100
534.000000, 85.333700
532.000000, 85.150500
530.000000, 85.259600
528.000000, 85.163400
526.000000, 85.123100
524.000000, 84.871600
522.000000, 84.855300
520.000000, 84.795800
518.000000, 84.672500
516.000000, 84.640700
514.000000, 84.342100
512.000000, 84.335200
510.000000, 84.144800
508.000000, 84.151400
506.000000, 84.135900
504.000000, 84.019000
502.000000, 83.950600
500.000000, 84.054300
498.000000, 84.203400
496.000000, 84.202800
494.000000, 84.134900
492.000000, 84.238000
490.000000, 84.570400
488.000000, 84.694000
486.000000, 84.433900
484.000000, 84.508700
482.000000, 84.831600
480.000000, 85.011300
478.000000, 84.530800
476.000000, 84.594300
474.000000, 84.393800
472.000000, 84.168500
470.000000, 84.234700
468.000000, 84.022500
466.000000, 83.913100
464.000000, 84.093300
462.000000, 84.129100
460.000000, 83.898300
458.000000, 83.990500
456.000000, 83.779100
454.000000, 83.899700
452.000000, 83.485400
450.000000, 83.566000
448.000000, 83.747000
446.000000, 83.530900
444.000000, 83.496800
442.000000, 83.298200
440.000000, 83.411500
438.000000, 83.308300
436.000000, 82.926000
434.000000, 82.882700
432.000000, 82.585900
430.000000, 82.526900
428.000000, 82.254600
426.000000, 82.214900
424.000000, 81.790100
422.000000, 81.739300
420.000000, 81.417400
418.000000, 81.068900
416.000000, 80.894700
414.000000, 80.501600
412.000000, 80.490900
410.000000, 80.100400
408.000000, 79.812700
406.000000, 79.334200
404.000000, 78.911200
402.000000, 78.240400
400.000000, 77.738200
398.000000, 77.281900
396.000000, 76.723000
394.000000, 76.092000
392.000000, 75.204800
390.000000, 74.687500
388.000000, 74.082600
386.000000, 73.184900
384.000000, 72.317500
382.000000, 71.369000
380.000000, 70.769500
378.000000, 70.082500
376.000000, 69.405700
374.000000, 68.462800
372.000000, 67.527600
370.000000, 66.735500
368.000000, 65.462000
366.000000, 65.068700
364.000000, 64.569900
362.000000, 64.199900
360.000000, 63.715200
358.000000, 62.780400
356.000000, 62.368600
354.000000, 62.037100
352.000000, 61.202800
350.000000, 60.553800
348.000000, 60.790800
346.000000, 60.223800
344.000000, 60.451700
342.000000, 59.828000
340.000000, 59.408600
338.000000, 59.189700
336.000000, 59.060700
334.000000, 58.799400
332.000000, 59.337200
330.000000, 59.160000
328.000000, 59.126100
326.000000, 58.952700
324.000000, 57.869500
322.000000, 57.938400
320.000000, 57.850000
318.000000, 57.457400
316.000000, 57.593100
314.000000, 56.513200
312.000000, 56.537000
310.000000, 55.968900
308.000000, 55.617300
306.000000, 55.373800
304.000000, 55.062200
302.000000, 54.409200
300.000000, 53.865100
298.000000, 53.533200
296.000000, 52.939300
294.000000, 52.437300
292.000000, 51.965600
290.000000, 51.546900
288.000000, 51.384400
286.000000, 50.375000
284.000000, 49.643900
282.000000, 49.376600
280.000000, 48.749400
278.000000, 48.286000
276.000000, 47.564300
274.000000, 47.202500
272.000000, 47.004400
270.000000, 46.794400
268.000000, 46.509600
266.000000, 46.239000
264.000000, 46.055200
262.000000, 45.753500
260.000000, 45.608300
258.000000, 45.609900
256.000000, 45.476500
254.000000, 45.345600
252.000000, 45.138900
250.000000, 45.003700
